I(mA)          V(mV)          f.s. oscilloscopio(mV)        ris multimetro (mA)
0.02           400            100                           0.01
0.03           420            100                           0.01
0.03           440            100                           0.01
0.04           460            100                           0.01
0.05           480            100                           0.01
0.07           500            100                           0.01
0.09           520            100                           0.01
0.13           540            100                           0.01
0.18           560            100                           0.01
0.25           580            100                           0.01
0.35           600            100                           0.01
0.52           620            200                           0.01
0.68           640            200                           0.01
1.04           660            200                           0.01
1.38           680            200                           0.01
2.05           700            200                           0.01
2.70           720            200                           0.01
4.06           740            200                           0.01